100
0 0 1
1 0.505876 0.166359
2 0.135053 0.0346884
3 -0.273109 0.250622
4 -0.0927944 0.135081
5 0.00474983 0.1015
6 -0.0504644 0.646746
7 -0.399019 0.0151968
8 0.177605 -0.197252
9 0.63822 -0.156701
10 -0.785569 0.39968
11 0.316783 0.920081
12 -0.665685 -0.165877
13 -0.0933213 0.584886
14 -0.119165 0.584941
15 0.305884 -0.44775
16 0.233521 -0.323125
17 0.085236 0.169539
18 0.20265 -0.479917
19 0.331148 -0.116319
20 -0.224081 0.117017
21 -0.634842 -0.594905
22 0.243775 -0.350469
23 0.336133 -0.0488446
24 -0.0715794 0.885272
25 -0.306164 0.309429
26 0.0228107 -0.0570216
27 0.378803 -0.206034
28 0.244902 0.924158
29 0.509887 0.255064
30 -0.0443104 0.122268
31 0.184212 -0.208693
32 0.142422 0.2765
33 0.213106 0.792095
34 -0.207652 -0.121538
35 -0.489637 -0.696364
36 0.436364 0.195582
37 -0.187156 -0.978795
38 -0.866963 0.237899
39 0.379294 -0.114148
40 -0.785095 0.251743
41 0.530228 0.248956
42 0.592427 -0.025739
43 -0.649462 -0.627275
44 -0.868005 0.210206
45 -0.0556838 -0.335022
46 0.408136 0.458263
47 -0.2852 0.0263551
48 0.522879 0.10845
49 -0.336957 -0.171325
50 -0.169112 -0.42251
51 0.0858899 -0.453821
52 0.591304 0.0518244
53 -0.147666 -0.0276218
54 -0.0638045 -0.324811
55 -0.1952 -0.206411
56 -0.0509142 -0.381228
57 -0.0833654 -0.417933
58 -0.068034 0.00772551
59 -0.887233 0.334394
60 -0.329746 0.271024
61 -0.827469 -0.260055
62 -0.245872 0.243059
63 0.152934 0.160669
64 -0.278387 0.889612
65 -0.294038 -0.595819
66 0.191603 -0.26476
67 0.272767 0.413396
68 0.325802 0.431204
69 -0.165952 0.609866
70 -0.780514 0.251346
71 0.801472 -0.40932
72 0.80554 0.531569
73 -0.758728 0.00627244
74 -0.405112 0.599644
75 0.158194 0.178723
76 -0.34115 0.284896
77 -0.794312 0.210611
78 -0.50751 0.409273
79 -0.369735 -0.209484
80 0.135392 0.296922
81 0.142068 -0.23692
82 0.0223294 0.0125419
83 -0.429458 -0.435988
84 0.537102 0.72812
85 0.328712 0.143573
86 0.522936 -0.576132
87 -0.562375 -0.148037
88 0.417899 0.199444
89 -0.682267 0.394555
90 0.443681 -0.146887
91 -0.177528 0.605316
92 0.67951 -0.612508
93 -0.21687 0.0907435
94 0.0528444 0.0130245
95 -0.0834944 0.121269
96 0.769081 -0.392141
97 -0.604654 0.00288495
98 -0.426146 -0.403798
99 -0.599824 -0.360081
100 -0.548774 -0.342315
