100
0 0 0
1 -0.633874 -0.223954
2 -0.822926 -0.292633
3 0.703836 -0.406381
4 0.0227368 0.340794
5 -0.135986 0.114162
6 0.349281 -0.543536
7 -0.593097 0.479684
8 0.285311 -0.416509
9 -0.166402 -0.662588
10 -0.635174 0.468694
11 0.54334 0.419527
12 0.4085 0.125692
13 0.640214 -0.27589
14 -0.5135 0.415413
15 -0.416871 0.554426
16 -0.183572 -0.592072
17 -0.11271 0.493298
18 0.38678 0.195947
19 0.075996 -0.452282
20 -0.609233 -0.121593
21 -0.12274 0.0865419
22 -0.093965 -0.924295
23 0.62285 0.11151
24 -0.0180889 0.547322
25 -0.256095 -0.849767
26 -0.0744644 -0.190253
27 -0.594743 0.176356
28 -0.174038 -0.854595
29 -0.0997669 0.337885
30 0.357598 0.46704
31 -0.198827 -0.249853
32 -0.642226 -0.605458
33 -0.0296678 -0.872564
34 -0.0264515 0.358343
35 0.349699 -0.00581808
36 -0.100046 0.407348
37 -0.297485 0.379514
38 0.896831 -0.41356
39 -0.483288 0.347901
40 -0.702997 -0.463307
41 0.0649751 -0.805224
42 -0.49031 -0.558166
43 0.0603137 -0.313334
44 -0.959346 -0.0841603
45 -0.043592 -0.531716
46 -0.293831 -0.761006
47 -0.295931 -0.66788
48 -0.174381 -0.62169
49 -0.165991 0.652608
50 0.274416 -0.266543
51 -0.207282 0.107629
52 0.956695 -0.133244
53 -0.157378 0.481879
54 0.430378 -0.816149
55 -0.145564 -0.757231
56 0.0451474 0.241715
57 -0.0690381 -0.20843
58 0.565415 0.387699
59 0.509679 -0.648842
60 0.817553 -0.489528
61 -0.945862 0.143994
62 0.759634 -0.241632
63 0.182214 -0.235454
64 -0.338545 -0.682003
65 0.756861 0.217543
66 -0.372396 0.184732
67 0.885693 0.113204
68 -0.440978 -0.134798
69 0.0578638 -0.00949314
70 -0.140498 0.176003
71 -0.189776 -0.0420275
72 0.85655 0.505731
73 -0.0147958 0.649197
74 -0.0297611 -0.0884016
75 0.110637 0.513578
76 -0.616128 -0.612293
77 0.757383 -0.508077
78 -0.199528 0.635826
79 0.393519 -0.497174
80 -0.286213 -0.437085
81 0.210166 -0.94632
82 0.853424 0.00318365
83 0.546299 -0.584193
84 0.0337912 0.411626
85 -0.142358 -0.117812
86 0.302239 -0.48796
87 0.187643 0.901712
88 -0.655007 -0.697558
89 -0.271647 0.0213501
90 -0.192492 0.947554
91 0.579319 0.774147
92 0.61455 0.606727
93 0.475259 0.7328
94 0.460579 0.00328065
95 0.514727 -0.0620552
96 0.59873 -0.0543376
97 0.125552 0.605892
98 0.638815 -0.166778
99 -0.0655718 0.483204
100 0.0965412 -0.608484
