100
0 0 1
1 -0.611208 -0.522304
2 0.191254 -0.0330471
3 0.243664 -0.488022
4 0.19246 -0.629122
5 0.547208 0.129273
6 -0.521129 0.223452
7 0.99183 0.0361191
8 0.163604 -0.321313
9 0.011436 0.0973267
10 -0.563458 0.575329
11 0.489645 0.304437
12 -0.410406 -0.844235
13 -0.871665 -0.0539549
14 -0.0682881 0.330975
15 0.074397 0.1609
16 -0.592902 0.246519
17 0.215532 0.100489
18 -0.174957 0.334269
19 0.432381 -0.122367
20 -0.129233 0.148156
21 0.0913661 0.448328
22 -0.289174 0.0169548
23 0.77728 -0.334346
24 -0.549843 -0.24602
25 -0.409967 0.266238
26 -0.794572 -0.446531
27 -0.352257 0.466914
28 -0.222757 -0.520683
29 -0.151319 0.24003
30 -0.195592 0.0240212
31 -0.345302 0.786571
32 0.636842 -0.227494
33 0.229896 0.409385
34 -0.352258 0.237539
35 -0.26683 -0.0897943
36 0.241807 -0.248673
37 -0.371826 0.400052
38 -0.160761 0.6963
39 -0.60957 -0.325757
40 0.203199 0.259525
41 -0.49332 -0.626615
42 0.235946 0.0519375
43 -0.284988 0.426614
44 -0.0550707 -0.372939
45 -0.322996 -0.265544
46 -0.0241883 -0.911109
47 0.467999 -0.134001
48 -0.236631 0.0426119
49 -0.946544 -0.0625711
50 0.0471605 0.181263
51 -0.81286 0.52969
52 0.294959 0.225805
53 -0.0228065 -0.150927
54 0.548934 0.612105
55 -0.75499 -0.0172912
56 0.272578 0.478432
57 -0.0602834 -0.388275
58 -0.0706917 0.23
59 0.141923 -0.310667
60 0.142674 0.239534
61 -0.0468681 -0.246712
62 0.224416 -0.485141
63 -0.305875 0.658142
64 -0.615087 -0.751353
65 0.516326 0.514471
66 -0.352068 -0.13718
67 -0.230859 0.161594
68 0.567869 0.124122
69 -0.577753 -0.457016
70 -0.567717 -0.663557
71 -0.0488009 0.19882
72 0.269957 -0.356242
73 0.724471 0.625573
74 0.266857 0.130865
75 -0.80442 -0.427548
76 0.479756 -0.509877
77 0.0109114 -0.858702
78 -0.00361041 -0.167284
79 0.434064 0.584573
80 0.197733 0.265054
81 -0.101986 0.464257
82 0.258153 0.401596
83 0.16698 0.286488
84 -0.451056 0.21895
85 -0.34005 0.226446
86 0.170106 -0.0856382
87 -0.0434178 0.251544
88 0.0413471 0.803838
89 -0.460979 0.0353519
90 -0.323664 0.220274
91 0.773825 -0.348602
92 0.252497 0.619348
93 0.0912473 -0.0755499
94 -0.477721 -0.150411
95 0.358267 0.0745137
96 0.690817 0.610248
97 0.310635 -0.217229
98 -0.308038 -0.877481
99 0.424415 0.484675
100 0.827228 -0.108064
