100
0 0 0
1 -0.428692 0.343043
2 0.271155 0.784781
3 -0.167785 0.90714
4 0.533748 0.747157
5 -0.0745146 0.523037
6 -0.587938 0.671959
7 -0.804937 -0.379126
8 -0.603299 -0.557675
9 -0.66343 0.13121
10 -0.41953 -0.424409
11 -0.142825 -0.983881
12 -0.453814 -0.307721
13 0.115676 -0.856275
14 -0.324723 0.0174113
15 0.457766 0.0357546
16 0.589245 0.546824
17 0.219846 -0.024542
18 0.259586 -0.236826
19 0.609722 0.113032
20 0.585109 0.0787576
21 -0.752325 -0.449052
22 0.507479 0.000550869
23 -0.118096 -0.785566
24 0.976649 -0.00387398
25 0.705659 -0.0775165
26 0.86278 -0.395214
27 -0.441296 -0.217221
28 0.867959 -0.360624
29 0.679732 -0.133066
30 0.246618 0.753642
31 -0.807818 -0.229166
32 0.100635 -0.929902
33 0.322064 -0.286561
34 -0.17752 -0.304092
35 -0.646462 0.156873
36 0.466635 -0.215292
37 0.402224 -0.344658
38 -0.564316 0.31183
39 0.696784 0.388897
40 -0.43386 0.196242
41 0.152352 0.143369
42 -0.15554 -0.601002
43 0.504606 0.828263
44 -0.0556667 -0.188908
45 0.742193 -0.00983102
46 0.748514 -0.234715
47 0.336985 0.130101
48 -0.817476 0.0556132
49 -0.493846 -0.319966
50 -0.460415 0.101609
51 0.387882 0.625646
52 0.0655434 -0.74407
53 0.460023 -0.411988
54 0.0580611 0.672383
55 0.528414 0.665548
56 -0.187336 -0.103569
57 -0.245279 0.423691
58 0.335812 -0.0107668
59 0.28411 0.358352
60 0.826968 -0.137039
61 -0.721997 0.671873
62 -0.390489 -0.695901
63 -0.112691 0.424834
64 -0.897359 -0.439824
65 0.113134 0.519619
66 -0.207885 -0.0199627
67 0.326076 0.670387
68 0.297373 -0.0202368
69 -0.649409 0.603724
70 0.0736344 0.57867
71 0.215889 0.516975
72 -0.493271 0.337044
73 0.773859 -0.275536
74 -0.0796823 0.467675
75 0.596725 0.381594
76 0.334859 0.53924
77 0.860303 -0.466358
78 -0.580906 -0.411642
79 -0.697223 -0.206813
80 0.232503 -0.22442
81 0.881924 -0.0416505
82 0.0496906 0.358066
83 0.766531 -0.617056
84 -0.230779 0.195295
85 0.0544132 -0.268997
86 -0.845894 0.0493281
87 -0.408968 0.629062
88 -0.432559 -0.485154
89 0.243102 -0.830236
90 -0.244692 -0.433248
91 -0.0422366 -0.747936
92 -0.224395 0.579527
93 0.0771656 -0.976975
94 -0.247445 -0.874935
95 0.504352 -0.326653
96 -0.0958854 0.157841
97 0.484476 -0.841518
98 0.578047 0.0138564
99 0.0759441 0.976434
100 -0.284542 -0.403015
