100
0 0 1
1 -0.228881 0.104691
2 -0.11526 -0.781689
3 -0.133848 0.342198
4 0.302777 -0.892076
5 0.651841 -0.441464
6 -0.545904 -0.153889
7 0.625411 0.453268
8 0.426992 -0.377133
9 -0.386846 -0.328574
10 0.722359 -0.15385
11 0.541758 -0.383797
12 -0.466155 -0.435715
13 0.505657 -0.232301
14 -0.699683 -0.35224
15 0.419259 0.851147
16 0.0402971 -0.904116
17 -0.50596 -0.53105
18 0.346195 -0.203961
19 0.231816 0.790929
20 0.398544 -0.234403
21 0.368624 0.448127
22 -0.418821 -0.204465
23 0.0590058 -0.0534937
24 -0.178587 -0.250807
25 -0.360957 0.829436
26 -0.739055 0.449494
27 -0.17434 0.165126
28 -0.814735 0.473077
29 0.235997 0.13331
30 0.287678 0.456914
31 0.786779 0.41432
32 0.326303 0.157916
33 -0.861458 0.270041
34 -0.234686 0.2378
35 0.524841 0.192833
36 0.830143 -0.378696
37 -0.606011 0.0849388
38 -0.288352 -0.112592
39 -0.604624 -0.361561
40 -0.333641 -0.907634
41 0.0472212 0.859053
42 -0.315235 -0.476756
43 0.774894 0.0735459
44 0.802824 -0.154964
45 0.276584 0.606826
46 0.000933499 0.437415
47 0.198406 -0.266471
48 0.383051 0.0328516
49 0.375223 -0.0175039
50 -0.17738 -0.918961
51 -0.629333 -0.539526
52 0.490903 -0.0938188
53 -0.29931 -0.377142
54 0.0302955 -0.466841
55 0.416607 -0.174264
56 -0.602942 0.206251
57 -0.0745207 -0.718364
58 -0.522904 -0.323869
59 0.854387 -0.370516
60 0.194179 -0.393755
61 -0.726341 0.0782886
62 0.279644 0.104651
63 0.195166 -0.493969
64 0.133704 -0.214811
65 -0.672277 0.212282
66 0.518475 0.540806
67 0.580836 0.176763
68 -0.143415 -0.747132
69 -0.41598 -0.063357
70 -0.665961 -0.170068
71 -0.582857 -0.755168
72 -0.0265118 0.390437
73 0.869182 0.310095
74 -0.168485 -0.259651
75 -0.0242458 0.689874
76 0.087225 0.806136
77 -0.0373399 -0.199064
78 0.268066 -0.280153
79 -0.358446 0.146091
80 0.725761 0.104826
81 -0.306633 0.949374
82 -0.915302 0.3573
83 -0.388093 -0.578664
84 -0.553928 0.406646
85 0.169486 0.608198
86 0.626443 -0.0907634
87 -0.840294 0.197159
88 0.403417 0.685942
89 -0.626651 0.586063
90 0.81916 -0.156847
91 0.280145 0.234709
92 -0.125618 -0.0305134
93 -0.0996842 0.159359
94 -0.251598 0.179052
95 -0.332187 0.177973
96 -0.204456 0.185976
97 0.113167 0.549309
98 0.241246 -0.389114
99 -0.105314 0.240889
100 0.695367 -0.066758
