100
0 0 0
1 -0.788343 0.227842
2 0.475075 -0.0546672
3 -0.265872 0.363395
4 -0.520618 0.64335
5 0.949681 -0.163443
6 -0.787662 0.516944
7 0.474858 -0.868318
8 -0.462107 -0.685412
9 -0.494812 -0.681753
10 0.829635 0.185662
11 0.0596781 -0.333901
12 -0.455003 -0.343155
13 -0.803527 -0.320746
14 0.0667919 0.648901
15 -0.143673 0.361536
16 -0.330545 0.48216
17 -0.381041 -0.44354
18 0.40808 -0.700553
19 -0.913814 0.0366953
20 -0.439834 -0.790543
21 -0.676731 -0.263368
22 -0.465482 -0.649831
23 0.0652379 0.630277
24 0.266844 -0.744085
25 0.468718 0.515043
26 0.607742 -0.315063
27 0.0775206 0.141537
28 -0.465421 -0.0297901
29 0.283463 -0.221754
30 -0.203872 0.838507
31 -0.286593 0.28927
32 -0.20509 -0.252784
33 0.702801 0.534402
34 0.349543 0.0408811
35 -0.432061 -0.895435
36 0.257947 -0.739995
37 0.447628 -0.787818
38 -0.0532376 -0.0759697
39 0.0174956 -0.148487
40 0.55354 0.757886
41 -0.606895 0.341893
42 0.430241 0.228351
43 -0.418617 -0.104443
44 0.329139 0.193854
45 0.629465 -0.0173391
46 0.471453 -0.21957
47 0.11241 0.660028
48 -0.522838 -0.276278
49 0.189667 -0.443819
50 -0.936908 -0.0483317
51 0.326228 0.197246
52 0.291221 0.862148
53 -0.363612 0.856212
54 0.698132 -0.190585
55 -0.741984 -0.194132
56 0.842943 -0.277096
57 -0.0449551 -0.439919
58 0.759612 0.136005
59 0.722566 0.302478
60 -0.793111 -0.338862
61 0.491937 -0.846549
62 0.053992 0.509953
63 -0.189843 -0.517041
64 -0.298396 -0.345131
65 -0.0680129 0.596275
66 0.329851 0.823631
67 -0.0741882 0.0308568
68 0.507701 -0.102326
69 -0.627348 0.0718059
70 -0.016971 0.195999
71 -0.429627 0.666031
72 0.673105 0.276533
73 0.538161 0.280429
74 -0.478642 0.431069
75 0.128317 -0.0984192
76 0.715818 0.345151
77 -0.0865532 -0.0295399
78 -0.229286 -0.314486
79 -0.687506 -0.614182
80 0.661173 0.66165
81 -0.62258 0.145333
82 -0.274074 0.75866
83 0.65876 0.637508
84 0.0186071 -0.70675
85 -0.0795535 -0.247417
86 -0.312006 0.710239
87 0.671495 0.672249
88 0.890006 -0.301862
89 -0.760309 0.579786
90 0.876858 -0.0828563
91 0.426378 -0.532002
92 -0.194911 0.24777
93 0.720658 -0.207537
94 0.953588 0.128456
95 0.634924 -0.317791
96 -0.230535 -0.239365
97 -0.00516378 0.681594
98 -0.915776 0.32749
99 0.648333 0.321633
100 -0.437534 -0.526692
