100
0 0 0
1 -0.090391 0.0343209
2 -0.0457623 0.100143
3 -0.00361272 0.19933
4 -0.97549 0.0096167
5 -0.474257 0.230509
6 -0.394793 0.197989
7 -0.374393 0.110153
8 0.680176 0.455865
9 -0.798624 0.0232247
10 0.0420969 0.272806
11 -0.0681748 0.0849331
12 -0.134938 0.636191
13 -0.252849 0.842022
14 0.607916 0.387533
15 0.0120606 -0.17942
16 0.326196 -0.0485662
17 -0.756653 0.0736432
18 -0.346817 -0.252054
19 -0.0147877 -0.0400501
20 -0.723034 0.50813
21 0.0146476 0.158132
22 -0.790501 -0.101658
23 -0.0938866 0.318455
24 -0.542669 0.578254
25 -0.604957 0.0363548
26 -0.390099 0.446465
27 -0.303288 -0.846791
28 -0.317759 -0.745287
29 0.546999 -0.35923
30 -0.0379915 -0.17918
31 0.0138441 0.836868
32 0.506279 0.57287
33 0.714878 0.594891
34 0.000903107 0.357749
35 -0.413918 -0.310219
36 0.124389 0.0333968
37 0.480037 -0.00143387
38 -0.547763 -0.831596
39 0.507009 -0.786883
40 -0.169184 -0.26141
41 -0.387959 -0.438844
42 -0.331036 -0.0420002
43 -0.0400594 -0.231754
44 0.149989 0.397047
45 0.289566 -0.594815
46 -0.381688 -0.203911
47 0.301423 -0.833321
48 -0.0389448 -0.134553
49 0.00194865 0.493886
50 0.10225 -0.579071
51 -0.681699 0.494661
52 -0.341569 0.631224
53 -0.468196 0.315362
54 0.031078 0.160449
55 0.582729 -0.0319048
56 0.100507 0.429573
57 0.0511522 0.223265
58 0.359042 0.362163
59 0.616085 0.144055
60 0.0391987 0.398058
61 0.476429 -0.678286
62 0.292448 -0.193979
63 -0.505666 0.49345
64 0.0216441 0.0830441
65 0.00909418 0.746452
66 -0.268259 0.0791451
67 0.102221 -0.112654
68 0.969472 0.0342877
69 -0.407047 0.165272
70 -0.411094 0.0514998
71 -0.707861 -0.511432
72 -0.450756 -0.610507
73 0.238661 0.205128
74 -0.227048 -0.688069
75 -0.283947 0.508169
76 0.0351747 0.0111651
77 0.418061 0.603059
78 -0.558436 0.667574
79 -0.0885934 -0.347167
80 -0.21816 0.126868
81 0.0617862 0.364998
82 0.393855 -0.355007
83 -0.116214 -0.977512
84 -0.318128 0.0325716
85 -0.225899 -0.316468
86 -0.562504 -0.348197
87 0.583353 0.415244
88 0.946054 0.117693
89 0.42163 0.315591
90 -0.0968574 -0.714389
91 0.133764 0.200848
92 -0.121966 0.964471
93 0.0229504 0.135622
94 -0.370524 -0.271283
95 -0.808518 -0.0923525
96 0.0696558 -0.0719591
97 -0.250683 0.0865411
98 0.495545 0.692958
99 0.0966013 -0.0530231
100 0.354362 -0.400769
