100
0 0 0
1 -0.172514 0.942431
2 -0.884386 0.0851478
3 0.728857 -0.466981
4 -0.555576 0.813394
5 -0.852139 -0.374411
6 -0.722644 0.00226968
7 0.328652 -0.0134264
8 -0.693832 0.164602
9 -0.847926 0.0969867
10 0.899486 -0.216912
11 -0.269079 0.608403
12 -0.173696 0.0304315
13 0.364277 -0.0250924
14 0.453168 -0.799472
15 0.278589 -0.49851
16 0.0848147 -0.756268
17 -0.722895 -0.511049
18 -0.263999 -0.35529
19 0.643661 0.482418
20 0.00308336 -0.209207
21 0.0343598 0.585769
22 -0.874044 -0.418557
23 0.351218 -0.488416
24 -0.64848 0.362211
25 0.934343 -0.222064
26 -0.0307965 0.503872
27 -0.236312 0.578041
28 -0.229517 -0.277749
29 -0.313938 0.329303
30 0.862494 0.158227
31 0.47079 -0.5646
32 0.63855 0.179531
33 0.466698 -0.7999
34 -0.376955 -0.550224
35 0.460895 0.718978
36 0.0747364 0.379276
37 -0.150714 0.826337
38 0.284272 -0.875377
39 -0.0801038 0.954048
40 0.111406 -0.911791
41 -0.554053 0.440277
42 0.61556 -0.23342
43 0.0222961 0.47786
44 0.917187 0.157867
45 0.382764 0.630259
46 -0.584968 -0.774333
47 -0.436967 -0.102735
48 -0.47543 -0.877385
49 0.220704 0.658356
50 -0.194491 -0.33869
51 0.0786175 -0.291123
52 0.038701 -0.324444
53 0.716907 0.566483
54 0.105315 0.216566
55 -0.439406 -0.240423
56 0.21699 0.321033
57 0.83019 -0.483658
58 0.267511 0.0970548
59 -0.515341 0.529275
60 -0.685135 0.408557
61 0.46176 0.853924
62 0.884906 0.241675
63 0.145092 0.73652
64 -0.878167 0.321427
65 -0.298021 0.132763
66 -0.0769405 0.88802
67 0.396539 0.711131
68 -0.42274 -0.0356311
69 0.917609 -0.277422
70 0.933312 -0.0910761
71 -0.131509 0.915071
72 -0.109276 -0.49484
73 0.203134 -0.914816
74 0.477027 0.853191
75 -0.279771 -0.666966
76 0.682288 -0.637759
77 -0.349713 -0.584399
78 0.672022 -0.47655
79 -0.205054 -0.212848
80 0.307797 -0.175657
81 -0.61031 0.705065
82 -0.751226 0.579367
83 -0.020141 -0.659031
84 0.849508 -0.384822
85 -0.340569 0.504383
86 -0.334768 -0.788395
87 0.546048 -0.61
88 0.438083 0.161181
89 0.330065 0.65622
90 -0.804653 -0.351233
91 -0.618393 0.492916
92 0.223188 -0.454641
93 0.29702 -0.384536
94 -0.667943 0.0299498
95 0.301683 -0.720138
96 0.367134 -0.493659
97 0.918719 -0.157681
98 -0.73728 -0.165644
99 0.566619 0.301904
100 -0.805178 -0.534403
