100
0 0 0
1 0.598235 0.689239
2 0.0961402 0.41418
3 0.291873 -0.0209656
4 -0.127369 0.0655189
5 -0.0677045 0.103372
6 0.0632188 -0.149195
7 -0.20814 -0.334387
8 -0.0780187 0.0976236
9 -0.583046 0.207944
10 0.259598 0.280414
11 0.00697046 -0.418468
12 0.553741 -0.496672
13 -0.261086 -0.778126
14 0.000701989 -0.0943691
15 0.316635 -0.453775
16 0.526379 -0.491343
17 -0.862104 -0.286103
18 0.853635 0.304111
19 -0.272622 -0.130661
20 0.0951913 0.203117
21 -0.0092686 0.952497
22 0.795848 0.403779
23 -0.0928382 0.770254
24 0.0905061 0.21798
25 0.268404 0.17455
26 -0.253629 0.318807
27 0.480485 -0.204193
28 -0.718182 -0.168243
29 -0.0501331 0.56371
30 0.236062 -0.0180377
31 0.125607 0.135152
32 -0.656536 -0.116468
33 -0.772904 -0.223686
34 -0.605386 0.18589
35 0.164387 -0.143552
36 -0.385244 0.544721
37 0.167291 -0.214663
38 -0.242201 0.0249697
39 0.29038 -0.325477
40 -0.151921 0.323284
41 0.51322 -0.440488
42 -0.472898 -0.214959
43 -0.577425 0.230421
44 -0.82016 -0.183321
45 -0.245401 -0.267189
46 -0.284412 0.132457
47 0.739652 -0.146497
48 -0.19443 -0.0371443
49 0.768718 -0.57167
50 -0.496896 0.229471
51 -0.495288 -0.100115
52 -0.102445 0.333122
53 -0.243467 0.247404
54 -0.441267 0.700059
55 0.800621 -0.00561802
56 0.611525 0.00857784
57 0.550834 -0.251838
58 0.376984 0.00268027
59 0.141033 0.573737
60 0.544305 0.327287
61 0.102619 0.430598
62 -0.951017 0.101572
63 -0.168528 0.134193
64 0.696773 0.48364
65 -0.129466 0.456279
66 -0.398443 0.681659
67 -0.430879 0.148157
68 0.0250971 -0.303364
69 -0.0300357 -0.773887
70 0.381698 0.239497
71 -0.433956 0.130685
72 -0.150037 -0.096963
73 0.478593 -0.423416
74 -0.0642813 -0.478999
75 -0.502262 0.3845
76 -0.063907 0.360345
77 -0.0456829 -0.411377
78 0.4058 -0.00899373
79 -0.511759 0.00840781
80 -0.67068 0.65904
81 0.0839805 0.01992
82 0.394008 0.130343
83 0.284175 0.225752
84 0.491121 0.638199
85 -0.27165 0.547268
86 0.173921 -0.238357
87 0.212181 0.182601
88 -0.228347 0.39655
89 0.127312 -0.060448
90 0.200825 -0.514457
91 -0.0694522 0.0260805
92 -0.168083 0.562053
93 -0.264973 0.59606
94 0.0624565 0.201691
95 -0.572388 0.202137
96 -0.206154 -0.223049
97 0.0282116 0.0932451
98 0.446978 -0.0515758
99 -0.00647738 -0.125731
100 -0.376053 -0.508094
