100
0 0 1
1 0.244537 0.335028
2 -0.419904 0.542802
3 -0.235647 0.72581
4 0.204085 0.0576986
5 -0.632761 -0.757987
6 -0.174391 0.669144
7 -0.667466 0.162617
8 0.601532 0.683564
9 0.6184 -0.717102
10 0.688943 0.265999
11 0.950477 -0.0809483
12 -0.193283 -0.0835422
13 0.975364 0.198772
14 -0.560682 0.618359
15 0.303867 0.532737
16 0.240389 0.037554
17 -0.170854 0.0929525
18 -0.517818 -0.150295
19 0.281903 0.580202
20 -0.371382 0.463221
21 0.218008 -0.196749
22 -0.19267 0.271073
23 0.768339 -0.628461
24 0.0348984 0.466281
25 -0.316028 -0.858157
26 -0.094579 0.190699
27 -0.960737 -0.250727
28 -0.723618 -0.295558
29 0.31273 -0.841259
30 -0.830229 -0.312312
31 -0.538485 -0.571794
32 -0.502902 0.0243555
33 -0.713057 0.473954
34 -0.89586 0.128968
35 0.147113 -0.47111
36 0.821739 -0.0183773
37 -0.0781681 0.346378
38 -0.634525 -0.292884
39 -0.539261 -0.540343
40 -0.58387 -0.503265
41 0.299435 -0.94122
42 0.766084 0.29934
43 0.580561 -0.208653
44 0.119487 -0.526692
45 0.0390225 -0.0980879
46 -0.346784 0.161884
47 0.617493 0.414708
48 -0.204718 0.490192
49 0.418643 0.222007
50 0.875228 0.174488
51 0.872199 -0.460534
52 -0.836667 0.0238983
53 0.331254 -0.462602
54 -0.536533 -0.459049
55 0.332525 -0.682609
56 0.631037 -0.708943
57 0.928619 -0.00564418
58 0.474635 0.589799
59 0.55498 -0.477627
60 -0.353546 -0.0567431
61 0.218866 -0.776887
62 -0.320284 0.840019
63 0.807852 -0.260137
64 -0.117513 0.213525
65 0.811775 -0.14301
66 0.533415 0.386354
67 0.26674 -0.820813
68 -0.0619702 0.868316
69 -0.0101289 -0.272696
70 -0.819349 -0.509119
71 -0.125238 -0.375753
72 0.0397044 0.0184218
73 -0.100727 -0.600137
74 0.0978351 -0.495948
75 -0.885306 -0.221716
76 -0.150846 0.128298
77 0.0521851 0.329588
78 -0.0258174 0.280826
79 0.0336264 -0.792088
80 -0.568125 -0.643659
81 -0.125428 0.61512
82 -0.0101107 -0.935313
83 0.338281 0.911467
84 -0.930874 0.158116
85 0.456707 0.0846582
86 0.0654376 -0.278808
87 0.707648 -0.298121
88 0.344797 -0.12235
89 0.538619 0.61892
90 -0.325196 -0.53037
91 -0.704648 0.0837516
92 -0.657368 0.294215
93 0.772987 -0.465952
94 0.666045 -0.0606174
95 0.122613 0.966232
96 -0.819254 -0.00705943
97 -0.145974 0.14074
98 -0.828416 0.545813
99 0.485835 -0.32804
100 0.470076 -0.0907791
