100
0 0 1
1 -0.348167 -0.142365
2 0.0548974 0.17153
3 0.0324666 -0.902824
4 -0.0564878 0.961308
5 -0.453304 0.796672
6 0.223683 0.444627
7 -0.831841 0.318463
8 0.612584 0.764051
9 0.146746 0.0957997
10 -0.313985 0.792534
11 0.522981 0.230165
12 -0.415091 -0.813489
13 -0.219842 0.909064
14 0.581312 -0.575966
15 -0.139937 -0.123672
16 -0.065044 -0.643306
17 -0.491823 -0.618219
18 -0.0456948 -0.165226
19 0.376263 0.537241
20 0.746085 -0.510234
21 -0.0728383 0.0705598
22 -0.75481 0.144477
23 -0.793837 0.451108
24 0.791196 0.415297
25 0.342902 0.59638
26 0.677064 -0.356314
27 -0.0523925 0.35444
28 -0.496171 0.323868
29 0.636519 0.22084
30 -0.313993 -0.840056
31 0.0822762 -0.887551
32 0.423388 0.467119
33 0.701962 -0.438458
34 -0.142705 -0.113543
35 0.840133 -0.141491
36 -0.853464 -0.025957
37 -0.300222 -0.365035
38 -0.399761 0.58284
39 -0.609834 -0.44018
40 0.326348 0.34641
41 -0.78982 0.143683
42 -0.00944466 0.541751
43 0.453803 0.105968
44 -0.815226 -0.464554
45 -0.250993 0.537335
46 0.267334 -0.595111
47 0.660831 -0.687239
48 -0.0548797 -0.923984
49 0.0390283 0.853593
50 -0.132434 0.509543
51 0.405303 0.00465533
52 0.311371 0.758947
53 -0.829848 0.287002
54 -0.185372 0.896116
55 0.475504 0.480211
56 -0.603439 -0.618464
57 0.922774 -0.31586
58 0.760145 0.387954
59 0.904577 -0.28906
60 -0.34931 -0.39805
61 0.213597 0.214471
62 -0.412038 -0.687388
63 -0.206642 0.0494677
64 0.583791 -0.15316
65 -0.00687671 -0.758978
66 -0.0214481 0.0249845
67 -0.500302 -0.401412
68 -0.956804 -0.0301195
69 0.313987 -0.348696
70 -0.74863 -0.528591
71 -0.680835 -0.454607
72 0.435319 -0.620287
73 -0.645597 -0.380569
74 -0.403461 0.380476
75 0.870768 -0.317888
76 0.000723156 -0.707524
77 0.10342 -0.086523
78 -0.217512 0.344116
79 0.847716 0.318148
80 0.513187 0.633261
81 0.24721 0.826292
82 -0.51714 0.144807
83 0.00585153 0.0253174
84 -0.23116 -0.818471
85 0.143575 -0.534984
86 0.862938 -0.403408
87 -0.746927 0.0434429
88 -0.59108 0.0919101
89 -0.385992 0.76592
90 -0.530761 0.482963
91 0.184039 0.882286
92 -0.224037 0.533039
93 0.368729 0.925042
94 -0.153059 0.385591
95 0.19544 0.536427
96 -0.132881 0.626323
97 -0.372709 -0.112827
98 0.891511 0.321104
99 -0.538483 -0.16688
100 -0.623337 0.239231
