100
0 0 1
1 0.398581 -0.418968
2 -0.341166 0.921281
3 -0.46978 -0.00241979
4 0.584878 0.592228
5 0.200761 0.466839
6 -0.17496 -0.649282
7 0.727115 0.0176813
8 -0.736957 0.371184
9 -0.409829 0.641137
10 -0.0105609 -0.0535536
11 0.0930551 0.488539
12 0.382006 0.118337
13 -0.05422 -0.461344
14 -0.575049 -0.0613693
15 -0.28339 -0.217656
16 -0.0854709 -0.134047
17 -0.640219 -0.158278
18 0.614703 0.178259
19 0.172595 -0.261293
20 -0.434795 0.347476
21 -0.153294 0.0585491
22 0.907246 -0.386616
23 -0.153702 -0.404016
24 -0.412729 0.305561
25 -0.696058 0.133127
26 0.373728 0.0862317
27 -0.221924 0.569585
28 0.349516 -0.902873
29 -0.290849 0.0194371
30 0.3221 -0.442126
31 0.129209 -0.0837605
32 0.0695171 -0.0359719
33 -0.199087 -0.429236
34 0.321134 -0.655903
35 0.0342967 0.0217822
36 0.701005 -0.188716
37 0.169069 0.14883
38 -0.479446 0.707822
39 -0.507483 0.334393
40 0.154035 0.231044
41 0.209258 -0.332104
42 -0.0762334 0.444466
43 0.19268 -0.0244407
44 0.509945 0.36363
45 0.215291 -0.277322
46 -0.520817 0.0740896
47 -0.476028 0.156664
48 0.0632453 0.0884094
49 -0.153337 -0.241571
50 0.633169 -0.297433
51 -0.346392 -0.865263
52 0.0974886 -0.357933
53 0.766851 0.197781
54 0.878885 -0.267355
55 -0.624897 -0.255235
56 -0.441734 -0.592936
57 -0.582496 -0.154008
58 -0.305992 0.31515
59 0.325363 0.0823486
60 0.730398 -0.0351296
61 -0.489357 -0.356982
62 -0.389746 -0.39131
63 0.127576 -0.298591
64 0.651795 0.0519227
65 0.347409 0.472729
66 0.155446 0.0437867
67 -0.0916703 -0.10959
68 0.288112 0.567694
69 -0.318675 -0.0851775
70 0.224078 0.510095
71 0.128575 0.0610123
72 -0.219342 0.352609
73 -0.230129 0.665466
74 -0.153718 -0.290283
75 0.956986 -0.10655
76 -0.130299 -0.545871
77 -0.0280895 -0.209547
78 -0.674445 -0.462798
79 -0.49528 0.611035
80 0.778974 -0.054255
81 -0.172352 0.346752
82 0.895267 0.109238
83 -0.108208 -0.663958
84 -0.186251 -0.439469
85 0.754994 0.238786
86 -0.946054 0.294263
87 0.0181025 0.288897
88 0.5636 0.0795605
89 0.149258 -0.17739
90 -0.114033 0.322104
91 0.801272 -0.439755
92 0.000378036 -0.523726
93 -0.026603 0.570756
94 0.182335 0.230553
95 -0.0144433 -0.259947
96 0.296503 -0.0134038
97 0.107902 -0.0147809
98 0.202447 0.64273
99 0.644222 -0.180037
100 -0.023555 0.0525068
