100
0 0 0
1 0.486061 0.720117
2 0.0899125 -0.142599
3 -0.652156 -0.352818
4 -0.152572 0.259634
5 0.628917 -0.106731
6 -0.781523 0.0831274
7 0.215667 0.696365
8 0.370284 0.140015
9 0.0552786 -0.528407
10 0.0910333 -0.461488
11 -0.0596761 -0.403584
12 -0.921912 -0.0797993
13 -0.190854 0.0640688
14 0.487833 -0.487969
15 0.0218739 -0.339793
16 -0.485115 -0.190474
17 -0.523994 0.199358
18 0.155367 0.352831
19 0.794127 -0.369839
20 0.0448138 -0.062997
21 0.0951069 -0.705219
22 0.0845075 0.288314
23 -0.0858347 -0.0767567
24 0.0262117 0.195737
25 0.161673 0.162289
26 0.338242 -0.366948
27 0.331513 0.599535
28 0.173778 -0.598154
29 -0.0362094 0.0672706
30 0.266177 0.0587154
31 0.225239 -0.0198344
32 -0.701912 0.161247
33 0.558885 -0.189849
34 -0.265873 -0.618532
35 -0.201951 0.443868
36 0.137432 -0.0492876
37 -0.361325 0.254366
38 0.0492751 -0.54069
39 -0.348844 -0.0486682
40 0.0411109 0.121219
41 -0.333334 0.0671834
42 -0.843159 0.105168
43 -0.398235 -0.77177
44 0.0958576 -0.0498449
45 -0.147156 0.721073
46 -0.540413 0.392779
47 -0.288416 -0.302331
48 -0.65662 -0.108036
49 0.184907 0.300196
50 -0.375059 0.582433
51 0.0336022 -0.586182
52 0.186771 -0.349821
53 0.430997 -0.639867
54 -0.0478497 -0.360539
55 -0.325909 0.141857
56 0.253595 0.961399
57 0.595594 -0.293357
58 0.150043 0.195176
59 -0.39161 0.190449
60 0.20528 -0.749401
61 -0.926127 0.291878
62 0.267423 0.228895
63 0.540935 -0.123473
64 -0.305681 0.589413
65 0.0627676 -0.392762
66 0.251619 0.861953
67 0.126595 -0.0133997
68 -0.4429 -0.872186
69 0.541696 -0.299539
70 -0.205851 0.961654
71 -0.100096 0.27011
72 0.0587062 -0.507341
73 -0.162578 0.20038
74 -0.227946 -0.712466
75 -0.158104 0.503233
76 0.554627 0.116543
77 0.366876 -0.134902
78 0.281636 0.451159
79 -0.688488 -0.318282
80 -0.244631 0.0431076
81 0.354337 0.506089
82 -0.0439249 0.735517
83 -0.531743 0.352434
84 -0.31434 -0.0071682
85 -0.130062 -0.153546
86 -0.495381 -0.243206
87 -0.249116 0.555124
88 0.12184 0.0472671
89 0.360724 0.718805
90 0.0103683 -0.869264
91 -0.0934865 -0.404501
92 -0.0848676 0.225084
93 0.497644 -0.402505
94 0.0564545 -0.580978
95 -0.525149 -0.241742
96 0.373077 -0.169336
97 0.0557658 -0.35856
98 0.178552 -0.0623145
99 0.569252 -0.0564075
100 -0.094047 0.0675922
