100
0 0 0
1 0.451241 -0.248522
2 0.00293971 0.418364
3 0.439411 0.324104
4 0.18545 -0.361418
5 0.197386 -0.596831
6 0.270371 0.369932
7 -0.0999392 -0.481004
8 -0.284858 0.159331
9 0.793812 0.369254
10 -0.840468 -0.307695
11 0.0718096 -0.283319
12 -0.566616 0.140775
13 0.065858 0.0705495
14 -0.106741 0.0401301
15 -0.39859 -0.0607567
16 0.13038 0.739634
17 0.174015 0.723234
18 -0.345828 -0.167617
19 0.118607 -0.618495
20 0.559742 -0.562061
21 -0.627078 0.0298218
22 -0.327643 0.634382
23 0.340726 0.436154
24 -0.137413 -0.0834145
25 -0.85396 0.000859137
26 0.86147 0.103933
27 0.31262 -0.0834051
28 -0.0850369 -0.0740096
29 -0.514675 -0.376983
30 -0.104726 -0.0995696
31 -0.147284 0.103867
32 -0.401004 0.158776
33 0.23673 -0.0781756
34 -0.0300729 0.465552
35 0.0353031 -0.216318
36 0.229323 -0.305052
37 -0.0895225 0.881379
38 0.513178 0.107179
39 0.0933544 0.153108
40 0.238015 -0.143716
41 0.293055 0.0134823
42 -0.0133537 -0.452605
43 0.254313 -0.203509
44 -0.257283 -0.180051
45 0.0318094 -0.462045
46 -0.401321 0.496035
47 -0.107891 -0.119904
48 0.064159 -0.183789
49 -0.692733 -0.03084
50 -0.553577 -0.0256363
51 0.0667907 0.179165
52 0.144057 -0.528035
53 -0.28754 -0.161484
54 -0.291581 0.198618
55 0.676817 -0.347724
56 0.132479 0.410854
57 0.298512 -0.53558
58 -0.373788 -0.384777
59 -0.323094 -0.820932
60 0.531666 0.0490754
61 0.27522 -0.0748677
62 0.395482 -0.33346
63 -0.339991 -0.113297
64 0.584717 0.569635
65 0.145689 -0.615323
66 0.821672 0.321646
67 -0.730843 -0.191635
68 0.533225 0.519486
69 -0.770029 0.120438
70 0.120694 0.0739797
71 0.359293 -0.0786358
72 0.0960742 0.238774
73 0.105763 0.0294589
74 0.321811 0.391015
75 0.534034 -0.712169
76 -0.318061 -0.308921
77 0.471056 -0.545376
78 -0.590901 -0.239532
79 0.753453 -0.0626456
80 0.321732 0.861567
81 -0.286824 0.645613
82 0.0139652 0.0174514
83 -0.469255 0.266156
84 -0.00861634 0.460233
85 -0.0319774 0.393682
86 0.596153 -0.433894
87 0.409686 0.153349
88 0.0136544 -0.665558
89 -0.421194 0.451003
90 -0.188553 0.0378191
91 -0.499986 0.0785073
92 -0.0773219 -0.302718
93 -0.247261 0.0538317
94 0.425009 -0.23841
95 -0.244161 0.402975
96 0.774212 0.0451731
97 -0.2437 -0.0220496
98 0.285567 0.402998
99 0.319717 0.292762
100 -0.0757944 0.414024
