100
0 0 1
1 -0.937794 -0.0844648
2 0.600006 0.248478
3 0.695854 0.115426
4 0.427207 0.158692
5 -0.36118 0.469625
6 -0.86207 0.140305
7 0.767481 -0.0703264
8 -0.672592 -0.100945
9 -0.540177 0.602974
10 -0.371751 0.739661
11 0.597812 -0.155365
12 -0.376675 -0.0883902
13 -0.011177 0.505087
14 0.984037 -0.0682297
15 0.360424 0.380288
16 0.22554 -0.204731
17 0.575472 0.460513
18 0.692738 0.536526
19 0.0949593 0.634848
20 0.382936 0.659597
21 0.707008 -0.686387
22 0.0681272 -0.32983
23 0.148284 -0.517829
24 -0.105438 -0.700124
25 -0.638908 0.557304
26 -0.0349326 -0.204105
27 0.630084 0.470401
28 0.515718 0.554557
29 -0.771609 0.0651779
30 -0.500217 -0.1114
31 0.439284 -0.362912
32 0.602627 -0.0496132
33 0.977018 -0.0171941
34 0.0856123 0.415177
35 0.188995 0.972201
36 0.797574 -0.493615
37 0.0259116 0.974607
38 -0.220739 -0.848454
39 0.450493 0.418186
40 -0.260265 -0.306252
41 0.682921 0.0796993
42 -0.444018 -0.360481
43 0.281023 0.647015
44 0.278715 0.0369973
45 -0.22168 -0.391065
46 0.0646661 0.905271
47 0.351513 0.20074
48 -0.610082 -0.074439
49 -0.710485 -0.162009
50 -0.24158 -0.70984
51 0.247139 -0.313187
52 0.0332804 -0.727124
53 0.656731 0.721578
54 -0.667639 -0.30925
55 0.43415 -0.823541
56 0.130741 0.762066
57 0.757322 -0.0323524
58 0.706779 0.177749
59 -0.627576 0.430509
60 -0.250991 0.714443
61 -0.594732 -0.704454
62 0.619891 -0.632554
63 0.904546 -0.281783
64 0.0627441 -0.507699
65 -0.294933 0.839836
66 0.0751498 -0.783822
67 0.38742 -0.322329
68 0.0449462 -0.928998
69 0.158674 -0.674599
70 -0.229137 0.744997
71 0.243549 -0.00725807
72 -0.243337 -0.0679523
73 -0.603872 0.216226
74 -0.275245 -0.53189
75 0.272899 0.509857
76 0.641865 0.48863
77 -0.148273 0.169982
78 -0.376922 -0.410515
79 0.334429 -0.210094
80 0.068897 0.89568
81 0.0683749 0.919109
82 0.696018 0.526418
83 0.100609 -0.123674
84 -0.409365 -0.499713
85 -0.0374397 -0.395155
86 0.431489 -0.209233
87 -0.0657004 0.606269
88 0.573658 0.635311
89 0.774962 0.350015
90 -0.734518 0.621778
91 0.152477 -0.742393
92 0.760784 0.203459
93 0.239196 0.0115745
94 0.0588312 -0.232515
95 -0.0390883 0.450978
96 -0.124181 0.839748
97 0.39302 0.567606
98 -0.450243 -0.845661
99 -0.729773 -0.633531
100 -0.744311 -0.630103
