100
0 0 1
1 0.972799 0.169903
2 -0.427981 0.468525
3 0.0374155 -0.794164
4 0.266532 0.733471
5 0.483165 0.289012
6 -0.0808908 -0.703898
7 -0.0590374 0.808306
8 0.20872 0.296915
9 -0.384118 -0.0364421
10 0.0374138 0.234987
11 0.473373 0.0598175
12 0.0926104 0.571222
13 -0.0877906 -0.520361
14 -0.292077 0.776893
15 0.0593777 -0.539516
16 -0.959284 -0.066213
17 -0.696006 -0.155771
18 -0.23017 0.389245
19 0.30318 -0.446543
20 -0.107526 0.0902837
21 -0.363303 -0.682325
22 -0.628225 0.633494
23 0.183855 0.180287
24 0.2023 -0.298994
25 0.574383 0.184136
26 0.285587 -0.775491
27 0.139039 -0.611802
28 -0.443809 0.259162
29 0.375313 -0.046322
30 -0.125561 -0.296665
31 -0.343508 0.244235
32 -0.180255 -0.400687
33 -0.19591 0.564204
34 0.0818897 0.188513
35 -0.0764673 -0.0971658
36 -0.584194 0.634111
37 0.0169629 0.253147
38 -0.0661557 0.459251
39 0.350474 -0.684101
40 0.0293731 0.566813
41 0.649867 0.520755
42 -0.799164 0.0951147
43 -0.11708 0.706775
44 -0.364961 0.24297
45 -0.472285 0.245283
46 0.769958 -0.151049
47 -0.481417 0.438111
48 0.381578 -0.221278
49 -0.060244 -0.15809
50 0.0576581 0.270947
51 0.269116 -0.0482178
52 0.825836 -0.382143
53 -0.133035 -0.271146
54 -0.0539884 -0.44096
55 0.311854 -0.0565552
56 -0.207952 -0.500699
57 -0.796803 0.0499719
58 -0.652206 0.627001
59 -0.250677 -0.372072
60 -0.18336 0.404023
61 -0.0950505 -0.32119
62 -0.22191 0.0353477
63 0.0403891 -0.0250379
64 -0.344317 -0.172023
65 0.157693 0.454119
66 -0.441502 0.728368
67 -0.133098 0.195911
68 0.286091 0.527754
69 0.326255 0.0815466
70 -0.0331003 -0.18372
71 -0.293633 -0.765191
72 -0.0113788 0.242714
73 0.14968 0.282814
74 -0.108592 0.171823
75 -0.149889 0.119
76 -0.601445 0.19991
77 0.0227584 -0.0399882
78 0.319046 0.811399
79 0.263236 -0.209461
80 0.180086 0.00253135
81 0.0828274 -0.359469
82 0.379258 -0.151862
83 0.213772 0.468996
84 -0.754908 -0.0258161
85 -0.1632 0.692136
86 -0.0789272 0.857769
87 0.563078 0.236597
88 0.246884 -0.0454927
89 0.0393383 0.0460962
90 0.36813 0.623509
91 0.517486 0.263551
92 0.313141 -0.444541
93 0.610195 0.223711
94 0.609724 -0.20377
95 0.522953 -0.802924
96 0.220109 0.0785302
97 -0.0576683 -0.979158
98 -0.616355 0.649622
99 -0.381699 -0.731822
100 -0.154874 0.300454
